100 x 2
[ 4960.2555821636269684 0.0042498656129756097466 
  4960.4149145306300852 0.0042497301195854025185 
  4960.5742416471330216 0.0042495946217628614502 
  4960.733563467404565 0.0042494591194696699696 
  4960.8928799209270437 0.0042493236126462897648 
  4961.0521909990857239 0.0042491881012862667971 
  4961.2114966278368229 0.0042490525853269654061 
  4961.3707967853424634 0.0042489170647506228906 
  4961.5300913813562147 0.0042487815394808507025 
  4961.6893804242972692 0.0042486460095257647454 
  4961.8486637841297124 0.0042485104747749307882 
  4962.0079415410482397 0.0042483749352979355285 
  4962.1672134947421 0.0042482393909242044741 
  4962.3264796904413743 0.0042481038416934532517 
  4962.4857400197779498 0.0042479682875137562623 
  4962.644994452724859 0.0042478327283604205844 
  4962.8042428657963683 0.0042476971641287148904 
  4962.9634852825738562 0.0042475615948398028066 
  4963.1227215679246001 0.0042474260203790173765 
  4963.2819517072548479 0.0042472904407348686592 
  4963.4411755699620699 0.0042471548557966058365 
  4963.6003931734394428 0.0042470192655801848949 
  4963.7596043072953762 0.0042468836699065190543 
  4963.9188089930294154 0.0042467480687951074739 
  4964.0780071544259044 0.0042466124621818009469 
  4964.2371986786583875 0.0042464768499711515182 
  4964.3963834866981415 0.0042463412320966420835 
  4964.5555615492121433 0.0042462056085342814171 
  4964.7147326341737426 0.0042460699790867256417 
  4964.8738967937060806 0.0042459343437996916598 
  4965.0330538222115138 0.0042457987024985387875 
  4965.192203639681793 0.0042456630551159207226 
  4965.351346183781061 0.0042455274015997619338 
  4965.5104813581874623 0.0042453917418688964444 
  4965.6696090640325565 0.0042452560758399985469 
  4965.8287291306014595 0.00424512040336835067 
  4965.9878415266766751 0.0042449847244285113593 
  4966.1469460581147359 0.0042448490388557842332 
  4966.3060426822048612 0.0042447133466149986405 
  4966.4651311982624975 0.0042445776475358281549 
  4966.6242115382265183 0.0042444419415614796642 
  4966.783283598187154 0.0042443062286044901457 
  4966.9423471749178134 0.0042441705084925573227 
  4967.1014021458022398 0.0042440347811222951455 
  4967.2604484237399447 0.0042438990464206908376 
  4967.4194854108854997 0.0042437633038784096373 
  4967.5785128103398165 0.0042436275532433866825 
  4967.7375312485073664 0.0042434917950521650054 
  4967.8965403308657187 0.0042433560289692725045 
  4968.0555404455071766 0.0042432202553277023616 
  4968.2145306322217948 0.0042430844733088541806 
  4968.3735112071208277 0.0042429486831842997893 
  4968.5324817910513957 0.0042428128846318333839 
  4968.6914424225560651 0.0042426770776859941761 
  4968.8503926265366317 0.0042425412619427529254 
  4969.0093324959307211 0.0042424054374832036174 
  4969.1682615847730631 0.0042422696039282042219 
  4969.3271796324270326 0.0042421337610570640855 
  4969.4860867043635153 0.0042419979089274697029 
  4969.644982386731499 0.0042418620471879634956 
  4969.8038666002203172 0.0042417261757727109731 
  4969.9627390263804045 0.0042415902944118004381 
  4970.1215994239837528 0.0042414544029012917273 
  4970.2804475858847582 0.0042413185010664279304 
  4970.4392833067095125 0.0042411825887338624672 
  4970.5981063072831603 0.0042410466656674725844 
  4970.756916322707184 0.004240910731643326298 
  4970.9157131255478816 0.0042407747864695111498 
  4971.0744964056921162 0.0042406388298836337342 
  4971.2332659760959359 0.004240502861728347693 
  4971.3920214399086035 0.0042403668816673890235 
  4971.5507625768614162 0.0042402308895152394583 
  4971.7094890633406976 0.0042400948849981422856 
  4971.8682005654882232 0.004239958867833822434 
  4972.0268967580923345 0.004239822837747399091 
  4972.1855774062551063 0.0042396867945410756165 
  4972.3442420781448163 0.0042395507378491922509 
  4972.5028904473483635 0.0042394146673960589333 
  4972.6615221434813066 0.0042392785828685745561 
  4972.82013681789158 0.0042391424839722403189 
  4972.9787340954162573 0.0042390063703900875483 
  4973.1373135262438154 0.004238870241741449392 
  4973.2958747901429888 0.0042387340977563517028 
  4973.4544174608527101 0.0042385979380744742001 
  4973.6129409984823724 0.004238461762238755412 
  4973.7714451000474583 0.0042383255699941268027 
  4973.9299292098176011 0.0042381893608702267753 
  4974.0883928785797252 0.0042380531344875715591 
  4974.2468356816398227 0.0042379168904877083032 
  4974.4052570268204363 0.0042377806283694545789 
  4974.563656451222414 0.0042376443477420240244 
  4974.7220334197390912 0.0042375080481531794338 
  4974.8803873455290159 0.0042373717291067317797 
  4975.0386266301502474 0.0042372353125921342551 
  4975.1966960382533216 0.0042370987515872376647 
  4975.3549771464013247 0.0042369623710665728009 
  4975.513232814481853 0.0042368259690623395405 
  4975.6714624186297442 0.004236689545047373634 
  4975.8296652867365992 0.0042365530984537162068 
  4975.9878407309588511 0.0042364166287001082598 ]
